Wavelength [nanometers],Brightness [lux],Current [microamp],Potential Difference [millivolt]
400,34,0.88,9
425,50,1.2,12.3
450,55,1.18,12.1
475,120,2.04,21
500,155,2.22,22.8
525,149,2.04,21
550,166,2.51,25.7
575,194,3.26,33.4
600,130,2.56,26.3
625,75,1.62,16.7
650,60,1.62,16.7
675,60,1.62,16.7
700,60,1.62,16.7
725,40,1.06,10.9
750,21,0.61,6.3
775,9,0.29,3